#  T[K] R[Ohm]   T9884
0.020013 154242.000000
0.021333 150053.000000
0.022602 147865.000000
0.023565 143119.000000
0.024657 139005.000000
0.025632 134307.000000
0.026785 124976.000000
0.028443 121372.000000
0.029616 117373.000000
0.030629 106716.000000
0.032227 104322.000000
0.033112 98410.796875
0.034223 95656.398438
0.034902 92064.796875
0.035926 88206.398438
0.037165 85885.601562
0.038063 82780.398438
0.038754 79616.398438
0.039901 76843.203125
0.040892 74466.796875
0.042011 72676.796875
0.043024 70834.000000
0.043971 68151.601562
0.044998 66207.601562
0.045969 63894.800781
0.046995 61789.601562
0.047891 60163.601562
0.048933 58596.800781
0.049952 56922.000000
0.054923 50187.601562
0.060019 44802.000000
0.064983 40453.601562
0.070089 36977.199219
0.075026 33991.199219
0.079747 31450.400391
0.084833 29268.800781
0.090054 27496.800781
0.094929 25907.199219
0.100129 24499.199219
0.104623 23134.800781
0.110061 22073.199219
0.114898 21023.199219
0.119927 20214.400391
0.125216 19344.800781
0.129840 18644.099609
0.134489 17969.199219
0.139666 17353.300781
0.144551 16772.400391
0.149667 16239.500000
0.154591 15726.200195
0.160203 15284.299805
0.164920 14831.400391
0.170094 14472.799805
0.175087 14080.500000
0.179299 13725.599609
0.184670 13409.799805
0.189560 13085.400391
0.195128 12778.000000
0.199222 12510.700195
0.218729 11594.000000
0.237936 10805.799805
0.260060 10100.000000
0.278293 9565.200195
0.299907 9096.160156
0.320039 8696.400391
0.338345 8329.679688
0.359891 7999.799805
0.379985 7715.399902
0.399668 7457.520020
0.419588 7224.919922
0.439692 7013.200195
0.459759 6816.600098
0.480246 6653.040039
0.499643 6487.759766
0.520009 6343.439941
0.549647 6327.640137
0.559846 6071.359863
0.580226 5958.839844
0.599710 5847.399902
0.619763 5731.759766
0.640037 5636.680176
0.660138 5542.160156
0.679964 5465.839844
0.699830 5379.680176
0.720224 5306.640137
0.740218 5231.479980
0.760516 5165.160156
0.780382 5095.839844
0.799776 5031.959961
0.820265 4967.000000
0.839496 4913.160156
0.860635 4863.560059
0.879936 4807.160156
0.901038 4757.799805
0.920742 4706.160156
0.939548 4660.560059
0.959523 4621.240234
0.979034 4581.879883
0.999954 4542.560059
1.050343 4438.640137
1.099948 4351.720215
1.148657 4270.720215
1.196198 4283.120117
1.203160 4196.720215
1.273148 4092.520020
1.355396 3991.560059
1.360958 3971.080078
1.374903 3995.879883
1.392061 3979.520020
1.401030 3951.239990
1.430397 3940.439941
1.450979 3909.879883
1.474225 3863.360107
1.491212 3857.639893
1.511974 3841.959961
1.555333 3644.959961
1.642272 3732.320068
1.735647 3668.840088
1.794372 3632.080078
5.229188 3000.000000
7.830986 2700.000000
10.360839 2564.959961
12.464987 2464.239990
14.286293 2439.399902
15.895516 2420.600098
17.257489 2406.719971
18.435159 2395.679932
19.457240 2387.840088
20.400258 2376.320068
21.250966 2371.199951
21.980258 2366.879883
22.679502 2364.000000
23.308357 2360.159912
23.882610 2357.479980
24.431358 2353.320068
25.339070 2350.199951
27.175108 2343.959961
29.172189 2337.840088
31.090136 2331.479980
32.862240 2322.199951
34.457331 2318.560059
35.976607 2315.280029
37.396770 2313.719971
38.671576 2309.639893
39.876402 2307.919922
41.066048 2303.959961
42.143357 2302.959961
43.169634 2301.280029
44.185014 2300.399902
45.193410 2298.159912
46.102562 2297.439941
47.072329 2294.800049
47.997603 2293.360107
48.872302 2292.639893
49.793003 2292.479980
50.640756 2291.600098
51.520866 2290.760010
52.401620 2288.239990
53.266728 2287.239990
54.139039 2287.199951
54.960939 2286.399902
55.822257 2285.760010
56.650513 2284.080078
57.523775 2282.919922
58.362787 2282.280029
59.176894 2281.840088
60.021780 2280.760010
60.847505 2280.639893
61.712147 2279.199951
62.564971 2279.320068
63.383688 2278.840088
64.208823 2278.360107
65.042936 2277.479980
65.927145 2276.639893
66.734171 2275.560059
67.606580 2275.239990
68.455053 2274.760010
69.307353 2274.120117
70.156186 2272.840088
70.999295 2273.399902
71.847020 2273.120117
72.653311 2272.199951
73.568573 2272.120117
74.415482 2272.199951
75.374711 2270.320068
76.158247 2270.719971
77.119714 2270.199951
77.940741 2268.719971
